Title: newairtable_18
Thickness to Chord Ratio: 0.0848657801
Zero Lift AOA (deg): 0
Reverse Camber Direction: 0

Reynolds Number: 0.05e6
AOA (deg) CL CD Cm25
-180.000000   0.000000   0.103238   0.000000
-170.000000   0.372801   0.139528   0.399894
-160.000000   0.562351   0.243700   0.267029
-150.000000   0.542856   0.402858   0.252633
-140.000000   0.531259   0.597107   0.269928
-130.000000   0.490670   0.802152   0.295522
-120.000000   0.411391   0.992002   0.319915
-110.000000   0.295522   1.142462   0.336811
-100.000000   0.153359   1.234038   0.341809
-90.000000   0.000000   1.253933   0.332412
-80.000000  -0.153359   1.234038   0.317016
-70.000000  -0.295522   1.142462   0.288424
-60.000000  -0.411391   0.992002   0.250334
-50.000000  -0.490670   0.802152   0.207245
-40.000000  -0.531259   0.597107   0.163357
-30.000000  -0.542856   0.402858   0.121068
-29.000000  -0.548260   0.388854   0.111847
-28.000000  -0.554507   0.375843   0.101530
-27.000000  -0.560993   0.363294   0.090530
-26.000000  -0.567114   0.350674   0.079255
-25.000000  -0.572267   0.337453   0.068119
-24.000000  -0.575846   0.323097   0.057531
-23.000000  -0.577248   0.307076   0.047904
-22.000000  -0.575869   0.288857   0.039647
-21.000000  -0.571105   0.267909   0.033173
-20.000000  -0.562351   0.243700   0.028892
-19.000000  -0.521262   0.213308   0.025393
-18.000000  -0.505566   0.203911   0.019495
-17.000000  -0.494169   0.195013   0.013496
-16.000000  -0.473774   0.184116   0.009497
-15.000000  -0.463477   0.175019   0.004699
-14.000000  -0.448615   0.167366   0.000700
-13.000000  -0.446450   0.158614  -0.004199
-12.000000  -0.426889   0.146563  -0.006998
-11.000000  -0.432222   0.134512  -0.013696
-10.000000  -0.457849   0.117862  -0.016796
 -9.800000  -0.462774   0.114412  -0.017695
 -9.600000  -0.467800   0.110762  -0.018995
 -9.400000  -0.472625   0.107213  -0.020595
 -9.200000  -0.477051   0.103663  -0.022194
 -9.000000  -0.480577   0.100113  -0.023794
 -8.800000  -0.483503   0.096663  -0.025293
 -8.600000  -0.485929   0.093413  -0.026893
 -8.400000  -0.488155   0.090063  -0.028892
 -8.200000  -0.490082   0.086713  -0.031292
 -8.000000  -0.491708   0.083363  -0.033391
 -7.800000  -0.493434   0.079913  -0.034891
 -7.600000  -0.495261   0.076363  -0.036090
 -7.400000  -0.496687   0.072813  -0.036690
 -7.200000  -0.497514   0.069363  -0.037090
 -7.000000  -0.497241   0.066013  -0.037290
 -6.800000  -0.494768   0.062763  -0.036990
 -6.600000  -0.489496   0.059413  -0.036390
 -6.400000  -0.482025   0.056263  -0.035691
 -6.200000  -0.473054   0.053413  -0.034791
 -6.000000  -0.462984   0.051063  -0.033691
 -5.800000  -0.446515   0.049212  -0.032591
 -5.600000  -0.420949   0.047662  -0.031492
 -5.400000  -0.391283   0.046311  -0.030492
 -5.200000  -0.362418   0.044961  -0.029392
 -5.000000  -0.339051   0.043710  -0.028293
 -4.800000  -0.321882   0.042460  -0.027193
 -4.600000  -0.306613   0.041309  -0.026193
 -4.400000  -0.291644   0.040159  -0.025193
 -4.200000  -0.276974   0.038908  -0.024094
 -4.000000  -0.262605   0.037558  -0.022994
 -3.800000  -0.248535   0.036007  -0.021994
 -3.600000  -0.234266   0.034557  -0.021094
 -3.400000  -0.218997   0.033606  -0.020395
 -3.200000  -0.202628   0.032956  -0.019795
 -3.000000  -0.185060   0.032605  -0.019095
 -2.800000  -0.168939   0.031802  -0.017895
 -2.600000  -0.151718   0.031099  -0.016296
 -2.400000  -0.135597   0.030296  -0.014596
 -2.200000  -0.120176   0.029494  -0.012697
 -2.000000  -0.105654   0.028591  -0.011697
 -1.800000  -0.092732   0.027388  -0.013996
 -1.600000  -0.080510   0.026086  -0.017395
 -1.400000  -0.066989   0.025183  -0.017595
 -1.200000  -0.052667   0.024380  -0.015196
 -1.000000  -0.037046   0.023777  -0.013696
 -0.800000  -0.019026   0.023274  -0.015396
 -0.600000   0.000395   0.022871  -0.018695
 -0.400000   0.019715   0.022469  -0.021494
 -0.200000   0.039335   0.022066  -0.024194
  0.000000   0.058555   0.021763  -0.026693
  0.200000   0.079075   0.022006  -0.028892
  0.400000   0.099394   0.022749  -0.030992
  0.600000   0.120614   0.023192  -0.033191
  0.800000   0.142733   0.023635  -0.035491
  1.000000   0.165752   0.023878  -0.037390
  1.200000   0.189771   0.024021  -0.038690
  1.400000   0.215090   0.023965  -0.039789
  1.600000   0.242108   0.023908  -0.040589
  1.800000   0.270625   0.023751  -0.041189
  2.000000   0.302742   0.023494  -0.041489
  2.200000   0.342356   0.023138  -0.041489
  2.400000   0.386070   0.022781  -0.041389
  2.600000   0.427184   0.022324  -0.041189
  2.800000   0.467699   0.021968  -0.040789
  3.000000   0.502115   0.021611  -0.040189
  3.200000   0.532250   0.020966  -0.039490
  3.400000   0.558386   0.020321  -0.038590
  3.600000   0.582622   0.019676  -0.037690
  3.800000   0.604759   0.018931  -0.036690
  4.000000   0.626796   0.018286  -0.035791
  4.200000   0.649233   0.017641  -0.034791
  4.400000   0.672370   0.016996  -0.033791
  4.600000   0.699006   0.016351  -0.032791
  4.800000   0.730241   0.016106  -0.031692
  5.000000   0.759976   0.015961  -0.030592
  5.200000   0.785612   0.016316  -0.029492
  5.400000   0.809249   0.017070  -0.028293
  5.600000   0.831286   0.017825  -0.027093
  5.800000   0.851524   0.018879  -0.025993
  6.000000   0.871661   0.019434  -0.024893
  6.200000   0.884410   0.021371  -0.023794
  6.400000   0.897159   0.023208  -0.022694
  6.600000   0.909408   0.024945  -0.021694
  6.800000   0.921557   0.026482  -0.020595
  7.000000   0.932807   0.028119  -0.019595
  7.200000   0.943056   0.029856  -0.018495
  7.400000   0.952606   0.031793  -0.017395
  7.600000   0.961556   0.033730  -0.016196
  7.800000   0.970006   0.035867  -0.014996
  8.000000   0.978156   0.038104  -0.013796
  8.200000   0.986306   0.040441  -0.012597
  8.400000   0.994357   0.042978  -0.011297
  8.600000   1.002007   0.045715  -0.010097
  8.800000   1.009357   0.048752  -0.008998
  9.000000   1.016608   0.051788  -0.007898
  9.200000   1.037436   0.063405  -0.006798
  9.400000   1.057965   0.075122  -0.005599
  9.600000   1.077994   0.086738  -0.004399
  9.800000   1.098523   0.098455  -0.003099
 10.000000   1.113154   0.110671  -0.001700
 10.200000   1.111688   0.125687   0.000000
 10.400000   1.100625   0.142402   0.001700
 10.600000   1.095361   0.156918   0.002999
 10.800000   1.093796   0.170134   0.003999
 11.000000   1.091431   0.183551   0.004499
 11.200000   1.086167   0.197567   0.003699
 11.400000   1.079203   0.212082   0.001899
 11.600000   1.072139   0.227198  -0.000400
 11.800000   1.064375   0.243114  -0.004199
 12.000000   1.057711   0.259429  -0.008498
 12.200000   1.050252   0.266613  -0.013197
 12.400000   1.042393   0.274397  -0.018095
 12.600000   1.035933   0.282481  -0.022594
 12.800000   1.032173   0.290164  -0.026693
 13.000000   1.032811   0.297248  -0.030292
 13.200000   1.036249   0.303533  -0.033291
 13.400000   1.040287   0.309517  -0.035990
 13.600000   1.045124   0.315201  -0.038490
 13.800000   1.050861   0.320786  -0.040889
 14.000000   1.057698   0.326270  -0.043189
 14.200000   1.065335   0.331855  -0.045388
 14.400000   1.073272   0.337439  -0.047587
 14.600000   1.081408   0.342923  -0.050187
 14.800000   1.089745   0.348108  -0.053286
 15.000000   1.098281   0.352893  -0.055985
 15.200000   1.095738   0.353372  -0.057685
 15.400000   1.095695   0.353552  -0.059084
 15.600000   1.096351   0.353531  -0.060784
 15.800000   1.095908   0.353311  -0.062983
 16.000000   1.092565   0.352890  -0.064983
 16.200000   1.086923   0.352270  -0.066882
 16.400000   1.080682   0.351650  -0.068682
 16.600000   1.073940   0.350830  -0.070581
 16.800000   1.066798   0.349910  -0.072381
 17.000000   1.059157   0.348889  -0.074180
 17.200000   1.051216   0.347769  -0.075980
 17.400000   1.042974   0.346649  -0.077779
 17.600000   1.034533   0.345429  -0.079579
 17.800000   1.025992   0.344209  -0.081278
 18.000000   1.017251   0.342989  -0.082978
 18.200000   1.008510   0.341669  -0.084678
 18.400000   0.999769   0.340449  -0.086277
 18.600000   0.991028   0.339229  -0.087877
 18.800000   0.982486   0.337909  -0.089476
 19.000000   0.974045   0.336788  -0.091076
 19.200000   0.965904   0.335568  -0.092575
 19.400000   0.958063   0.334548  -0.094075
 19.600000   0.950621   0.333428  -0.095475
 19.800000   0.943579   0.332508  -0.096874
 20.000000   0.936938   0.331688  -0.098274
 25.000000   0.821371   0.342873  -0.128063
 30.000000   0.775495   0.402858  -0.151660
 31.000000   0.771455   0.419057  -0.156134
 32.000000   0.768516   0.436322  -0.160587
 33.000000   0.766463   0.454524  -0.165018
 34.000000   0.765081   0.473530  -0.169422
 35.000000   0.764157   0.493209  -0.173797
 36.000000   0.763476   0.513430  -0.178142
 37.000000   0.762824   0.534062  -0.182451
 38.000000   0.761987   0.554973  -0.186724
 39.000000   0.760750   0.576031  -0.190958
 40.000000   0.758899   0.597107  -0.195148
 41.000000   0.756261   0.618090  -0.199294
 42.000000   0.752830   0.638960  -0.203396
 43.000000   0.748640   0.659720  -0.207453
 44.000000   0.743728   0.680373  -0.211465
 45.000000   0.738126   0.700920  -0.215434
 46.000000   0.731871   0.721363  -0.219360
 47.000000   0.724997   0.741706  -0.223243
 48.000000   0.717540   0.761951  -0.227083
 49.000000   0.709534   0.782098  -0.230881
 50.000000   0.701014   0.802152  -0.234638
 51.000000   0.692008   0.822109  -0.238352
 52.000000   0.682512   0.841939  -0.242023
 53.000000   0.672517   0.861611  -0.245648
 54.000000   0.662010   0.881089  -0.249224
 55.000000   0.650982   0.900340  -0.252749
 56.000000   0.639421   0.919330  -0.256221
 57.000000   0.627318   0.938025  -0.259637
 58.000000   0.614661   0.956391  -0.262995
 59.000000   0.601440   0.974395  -0.266293
 60.000000   0.587644   0.992002  -0.269529
 61.000000   0.573269   1.009183  -0.272699
 62.000000   0.558337   1.025921  -0.275805
 63.000000   0.542875   1.042205  -0.278846
 64.000000   0.526912   1.058023  -0.281822
 65.000000   0.510477   1.073362  -0.284733
 66.000000   0.493596   1.088211  -0.287580
 67.000000   0.476299   1.102557  -0.290362
 68.000000   0.458613   1.116389  -0.293079
 69.000000   0.440567   1.129695  -0.295732
 70.000000   0.422188   1.142462  -0.298321
 71.000000   0.403498   1.154675  -0.300845
 72.000000   0.384490   1.166303  -0.303298
 73.000000   0.365147   1.177309  -0.305676
 74.000000   0.345455   1.187661  -0.307972
 75.000000   0.325400   1.197321  -0.310181
 76.000000   0.304965   1.206256  -0.312297
 77.000000   0.284137   1.214430  -0.314314
 78.000000   0.262901   1.221809  -0.316227
 79.000000   0.241241   1.228356  -0.318029
 80.000000   0.219142   1.234038  -0.319715
 81.000000   0.196619   1.238837  -0.321283
 82.000000   0.173803   1.242811  -0.322745
 83.000000   0.150855   1.246034  -0.324114
 84.000000   0.127935   1.248583  -0.325408
 85.000000   0.105204   1.250533  -0.326640
 86.000000   0.082822   1.251959  -0.327826
 87.000000   0.060951   1.252936  -0.328981
 88.000000   0.039749   1.253541  -0.330120
 89.000000   0.019379   1.253848  -0.331259
 90.000000   0.000000   1.253933  -0.332412
 91.000000  -0.018276   1.253846  -0.333588
 92.000000  -0.035536   1.253537  -0.334772
 93.000000  -0.051916   1.252931  -0.335940
 94.000000  -0.067552   1.251953  -0.337071
 95.000000  -0.082580   1.250526  -0.338142
 96.000000  -0.097136   1.248576  -0.339130
 97.000000  -0.111355   1.246028  -0.340013
 98.000000  -0.125375   1.242806  -0.340769
 99.000000  -0.139331   1.238834  -0.341375
100.000000  -0.153359   1.234038  -0.341809
101.000000  -0.167564   1.228360  -0.342054
102.000000  -0.181920   1.221817  -0.342112
103.000000  -0.196372   1.214444  -0.341992
104.000000  -0.210865   1.206274  -0.341700
105.000000  -0.225341   1.197342  -0.341246
106.000000  -0.239745   1.187682  -0.340637
107.000000  -0.254022   1.177330  -0.339881
108.000000  -0.268114   1.166320  -0.338986
109.000000  -0.281966   1.154686  -0.337960
110.000000  -0.295522   1.142462  -0.336811
111.000000  -0.308734   1.129681  -0.335546
112.000000  -0.321592   1.116358  -0.334172
113.000000  -0.334093   1.102509  -0.332694
114.000000  -0.346234   1.088148  -0.331117
115.000000  -0.358013   1.073288  -0.329449
116.000000  -0.369427   1.057943  -0.327693
117.000000  -0.380475   1.042128  -0.325856
118.000000  -0.391153   1.025857  -0.323944
119.000000  -0.401459   1.009144  -0.321962
120.000000  -0.411391   0.992002  -0.319915
121.000000  -0.420947   0.974448  -0.317809
122.000000  -0.430130   0.956507  -0.315640
123.000000  -0.438945   0.938203  -0.313403
124.000000  -0.447395   0.919564  -0.311096
125.000000  -0.455485   0.900616  -0.308714
126.000000  -0.463218   0.881385  -0.306251
127.000000  -0.470599   0.861896  -0.303705
128.000000  -0.477632   0.842178  -0.301071
129.000000  -0.484321   0.822254  -0.298345
130.000000  -0.490670   0.802152  -0.295522
131.000000  -0.496678   0.781899  -0.292607
132.000000  -0.502323   0.761519  -0.289640
133.000000  -0.507580   0.741040  -0.286671
134.000000  -0.512421   0.720488  -0.283748
135.000000  -0.516821   0.699888  -0.280921
136.000000  -0.520751   0.679268  -0.278238
137.000000  -0.524187   0.658654  -0.275748
138.000000  -0.527101   0.638071  -0.273500
139.000000  -0.529468   0.617547  -0.271544
140.000000  -0.531259   0.597107  -0.269928
141.000000  -0.532481   0.576777  -0.268672
142.000000  -0.533262   0.556583  -0.267669
143.000000  -0.533762   0.536548  -0.266786
144.000000  -0.534141   0.516698  -0.265889
145.000000  -0.534560   0.497058  -0.264841
146.000000  -0.535179   0.477651  -0.263508
147.000000  -0.536158   0.458504  -0.261756
148.000000  -0.537657   0.439639  -0.259449
149.000000  -0.539836   0.421082  -0.256453
150.000000  -0.542856   0.402858  -0.252633
151.000000  -0.546784   0.384991  -0.247981
152.000000  -0.551321   0.367501  -0.243001
153.000000  -0.556072   0.350411  -0.238324
154.000000  -0.560645   0.333740  -0.234580
155.000000  -0.564648   0.317510  -0.232399
156.000000  -0.567687   0.301742  -0.232413
157.000000  -0.569369   0.286456  -0.235252
158.000000  -0.569303   0.271673  -0.241548
159.000000  -0.567094   0.257414  -0.251930
160.000000  -0.562351   0.243700  -0.267029
161.000000  -0.554764   0.230551  -0.287161
162.000000  -0.544358   0.217978  -0.311372
163.000000  -0.531244   0.205994  -0.338397
164.000000  -0.515531   0.194609  -0.366968
165.000000  -0.497328   0.183836  -0.395817
166.000000  -0.476744   0.173684  -0.423676
167.000000  -0.453891   0.164166  -0.449278
168.000000  -0.428876   0.155294  -0.471356
169.000000  -0.401810   0.147077  -0.488641
170.000000  -0.372801   0.139528  -0.499868
171.000000  -0.341960   0.132658  -0.503767
172.000000  -0.309396   0.126478  -0.499071
173.000000  -0.275219   0.120999  -0.484514
174.000000  -0.239538   0.116233  -0.458826
175.000000  -0.202462   0.112191  -0.420742
176.000000  -0.164101   0.108884  -0.368993
177.000000  -0.124565   0.106324  -0.302312
178.000000  -0.083963   0.104522  -0.219431
179.000000  -0.042405   0.103490  -0.119083
180.000000   0.000000   0.103238   0.000000

Reynolds Number: 0.06e6
AOA (deg) CL CD Cm25
-180.000000   0.000000   0.103238   0.000000
-170.000000   0.372801   0.139528   0.399894
-160.000000   0.562351   0.243700   0.267029
-150.000000   0.542856   0.402858   0.252633
-140.000000   0.531259   0.597107   0.269928
-130.000000   0.490670   0.802152   0.295522
-120.000000   0.411391   0.992002   0.319915
-110.000000   0.295522   1.142462   0.336811
-100.000000   0.153359   1.234038   0.341809
-90.000000   0.000000   1.253933   0.332412
-80.000000  -0.153359   1.234038   0.317016
-70.000000  -0.295522   1.142462   0.288424
-60.000000  -0.411391   0.992002   0.250334
-50.000000  -0.490670   0.802152   0.207245
-40.000000  -0.531259   0.597107   0.163357
-30.000000  -0.542856   0.402858   0.121068
-29.000000  -0.548260   0.388854   0.111847
-28.000000  -0.554507   0.375843   0.101530
-27.000000  -0.560993   0.363294   0.090530
-26.000000  -0.567114   0.350674   0.079255
-25.000000  -0.572267   0.337453   0.068119
-24.000000  -0.575846   0.323097   0.057531
-23.000000  -0.577248   0.307076   0.047904
-22.000000  -0.575869   0.288857   0.039647
-21.000000  -0.571105   0.267909   0.033173
-20.000000  -0.562351   0.243700   0.028892
-19.000000  -0.521262   0.213308   0.025393
-18.000000  -0.505566   0.203911   0.019495
-17.000000  -0.494169   0.195013   0.013496
-16.000000  -0.473774   0.184116   0.009497
-15.000000  -0.463477   0.175019   0.004699
-14.000000  -0.451281   0.167565   0.000700
-13.000000  -0.451781   0.159012  -0.004199
-12.000000  -0.434886   0.147159  -0.006998
-11.000000  -0.442884   0.135307  -0.013696
-10.000000  -0.471176   0.118856  -0.016796
 -9.800000  -0.476635   0.115446  -0.017695
 -9.600000  -0.482194   0.111835  -0.018995
 -9.400000  -0.487552   0.108325  -0.020595
 -9.200000  -0.492511   0.104815  -0.022194
 -9.000000  -0.496570   0.101305  -0.023794
 -8.800000  -0.500029   0.097895  -0.025293
 -8.600000  -0.502988   0.094684  -0.026893
 -8.400000  -0.505748   0.091374  -0.028892
 -8.200000  -0.508207   0.088064  -0.031292
 -8.000000  -0.510367   0.084754  -0.033391
 -7.800000  -0.512626   0.081343  -0.034891
 -7.600000  -0.514985   0.077833  -0.036090
 -7.400000  -0.516945   0.074323  -0.036690
 -7.200000  -0.518305   0.070913  -0.037090
 -7.000000  -0.518565   0.067603  -0.037290
 -6.800000  -0.516625   0.064392  -0.036990
 -6.600000  -0.511886   0.061082  -0.036390
 -6.400000  -0.504948   0.057972  -0.035691
 -6.200000  -0.496511   0.055162  -0.034791
 -6.000000  -0.486973   0.052851  -0.033691
 -5.800000  -0.471038   0.051040  -0.032591
 -5.600000  -0.446004   0.049530  -0.031492
 -5.400000  -0.416872   0.048219  -0.030492
 -5.200000  -0.388540   0.046908  -0.029392
 -5.000000  -0.365706   0.045697  -0.028293
 -4.800000  -0.349070   0.044487  -0.027193
 -4.600000  -0.334334   0.043376  -0.026193
 -4.400000  -0.319898   0.042265  -0.025193
 -4.200000  -0.305762   0.041054  -0.024094
 -4.000000  -0.291925   0.039743  -0.022994
 -3.800000  -0.278389   0.038233  -0.021994
 -3.600000  -0.264653   0.036822  -0.021094
 -3.400000  -0.249917   0.035911  -0.020395
 -3.200000  -0.234081   0.035300  -0.019795
 -3.000000  -0.217045   0.034989  -0.019095
 -2.800000  -0.198952   0.034082  -0.017895
 -2.600000  -0.179759   0.033275  -0.016296
 -2.400000  -0.161665   0.032367  -0.014596
 -2.200000  -0.144271   0.031460  -0.012697
 -2.000000  -0.127777   0.030453  -0.011697
 -1.800000  -0.112883   0.029145  -0.013996
 -1.600000  -0.098688   0.027738  -0.017395
 -1.400000  -0.083194   0.026731  -0.017595
 -1.200000  -0.066900   0.025824  -0.015196
 -1.000000  -0.049306   0.025116  -0.013696
 -0.800000  -0.029313   0.024509  -0.015396
 -0.600000  -0.007920   0.024001  -0.018695
 -0.400000   0.013372   0.023494  -0.021494
 -0.200000   0.034965   0.022986  -0.024194
  0.000000   0.056158   0.022579  -0.026693
  0.200000   0.078645   0.022528  -0.028892
  0.400000   0.100933   0.022977  -0.030992
  0.600000   0.124120   0.023126  -0.033191
  0.800000   0.148207   0.023275  -0.035491
  1.000000   0.173194   0.023224  -0.037390
  1.200000   0.199181   0.023073  -0.038690
  1.400000   0.226467   0.022722  -0.039789
  1.600000   0.255452   0.022371  -0.040589
  1.800000   0.285938   0.021920  -0.041189
  2.000000   0.320022   0.021369  -0.041489
  2.200000   0.361605   0.020718  -0.041489
  2.400000   0.407286   0.020067  -0.041389
  2.600000   0.450368   0.019317  -0.041189
  2.800000   0.492850   0.018666  -0.040789
  3.000000   0.529234   0.018015  -0.040189
  3.200000   0.552914   0.017661  -0.039490
  3.400000   0.572595   0.017307  -0.038590
  3.600000   0.590376   0.016954  -0.037690
  3.800000   0.606058   0.016500  -0.036690
  4.000000   0.621640   0.016146  -0.035791
  4.200000   0.637622   0.015792  -0.034791
  4.400000   0.654304   0.015439  -0.033791
  4.600000   0.674485   0.015085  -0.032791
  4.800000   0.699264   0.015131  -0.031692
  5.000000   0.722544   0.015277  -0.030592
